time (s)	det(V)
4641.396372	0.191628	
4641.397997	0.189271	
4641.399608	0.186004	
4641.401240	0.183241	
4641.402844	0.181303	
4641.404526	0.176852	
4641.406093	0.173061	
4641.407794	0.171357	
4641.409358	0.167703	
4641.411059	0.165129	
4641.412613	0.162829	
4641.414325	0.160847	
4641.415886	0.157830	
4641.417598	0.155498	
4641.419122	0.152742	
4641.420854	0.149483	
4641.422338	0.146079	
4641.424103	0.144456	
4641.425582	0.141604	
4641.427366	0.138043	
4641.428858	0.136657	
4641.430656	0.134868	
4641.432133	0.132327	
4641.433903	0.129620	
4641.435393	0.127557	
4641.437140	0.124854	
4641.438650	0.121305	
4641.440374	0.118755	
4641.441895	0.116737	
4641.443589	0.113482	
4641.445138	0.111114	
4641.446850	0.110038	
4641.448399	0.107516	
4641.450103	0.104729	
4641.451669	0.102553	
4641.453336	0.099883	
4641.454903	0.096197	
4641.456567	0.093389	
4641.458168	0.091403	
4641.459817	0.088563	
4641.461422	0.086005	
4641.463063	0.084357	
4641.464678	0.083101	
4641.466301	0.079229	
4641.467976	0.077300	
4641.469569	0.074955	
4641.471237	0.071612	
4641.472713	0.068381	
4641.474284	0.066822	
4641.475771	0.064776	
4641.477325	0.061936	
4641.478861	0.059446	
4641.480357	0.059406	
4641.481934	0.056949	
4641.483443	0.053823	
4641.485045	0.052429	
4641.486527	0.049899	
4641.488144	0.047426	
4641.489648	0.044384	
4641.491228	0.043522	
4641.492704	0.041146	
4641.494272	0.039055	
4641.495752	0.038136	
4641.497305	0.037214	
4641.498819	0.035063	
4641.500305	0.033129	
4641.501876	0.031550	
4641.503389	0.030672	
4641.504970	0.027562	
4641.506459	0.026035	
4641.508106	0.024803	
4641.509628	0.023006	
4641.511277	0.022116	
4641.512752	0.020388	
4641.514387	0.020754	
4641.515861	0.018635	
4641.517421	0.017975	
4641.518897	0.017685	
4641.520427	0.015469	
4641.521961	0.013608	
4641.523527	0.012839	
4641.525094	0.011819	
4641.526580	0.009745	
4641.528232	0.008855	
4641.529722	0.009088	
4641.531346	0.008919	
4641.532862	0.006945	
4641.534493	0.006913	
4641.535969	0.006659	
4641.537603	0.004947	
4641.539088	0.003050	
4641.540706	0.003026	
4641.542185	0.002184	
4641.543815	0.001056	
4641.545326	0.000214	
4641.546890	0.000778	
4641.548449	-0.000217	
4641.549969	-0.000572	
4641.551604	-0.001555	
4641.553098	-0.001063	
4641.554723	-0.003174	
4641.556246	-0.003871	
4641.557873	-0.004519	
4641.559351	-0.005043	
4641.560982	-0.006433	
4641.562461	-0.006095	
4641.564090	-0.006070	
4641.565575	-0.007005	
4641.567184	-0.007102	
4641.568700	-0.007412	
4641.570271	-0.008499	
4641.571823	-0.009893	
4641.573327	-0.010977	
4641.574960	-0.011041	
4641.576442	-0.012947	
4641.578071	-0.013329	
4641.579595	-0.013068	
4641.581238	-0.013615	
4641.582718	-0.014312	
4641.584362	-0.014896	
4641.585837	-0.014921	
4641.587476	-0.016121	
4641.588968	-0.019440	
4641.590586	-0.018494	
4641.592092	-0.020451	
4641.593672	-0.020911	
4641.595199	-0.021809	
4641.596734	-0.020399	
4641.598349	-0.022014	
4641.599836	-0.023521	
4641.601468	-0.023440	
4641.602969	-0.024758	
4641.604610	-0.025990	
4641.606098	-0.028436	
4641.607736	-0.027795	
4641.609224	-0.028758	
4641.610839	-0.030172	
4641.612326	-0.030792	
4641.613973	-0.029918	
4641.615469	-0.031731	
4641.617051	-0.031747	
4641.618557	-0.032468	
4641.620113	-0.033556	
4641.621705	-0.035308	
4641.623209	-0.036911	
4641.624881	-0.037149	
4641.626370	-0.037886	
4641.627991	-0.038949	
4641.629515	-0.041975	
4641.631156	-0.041838	
4641.632638	-0.043393	
4641.634286	-0.043606	
4641.635763	-0.044134	
4641.637390	-0.045507	
4641.638872	-0.047892	
4641.640484	-0.048219	
4641.641978	-0.048976	
4641.643629	-0.050116	
4641.645140	-0.050583	
4641.646758	-0.049890	
4641.648333	-0.050047	
4641.649917	-0.051538	
4641.651515	-0.051905	
4641.653065	-0.051598	
4641.654684	-0.053741	
4641.656199	-0.054692	
4641.657890	-0.055067	
4641.659365	-0.055574	
4641.661080	-0.057049	
4641.662557	-0.056541	
4641.664259	-0.056094	
4641.665748	-0.057178	
4641.667461	-0.057198	
4641.668947	-0.057443	
4641.670657	-0.057887	
4641.672138	-0.060630	
4641.673834	-0.059651	
4641.675330	-0.060360	
4641.676992	-0.060920	
4641.678516	-0.061858	
4641.680143	-0.060884	
4641.681706	-0.061085	
4641.683300	-0.061959	
4641.684897	-0.061847	
4641.686480	-0.061967	
4641.688063	-0.063341	
4641.689605	-0.064751	
4641.691287	-0.064199	
4641.692772	-0.065218	
4641.694457	-0.065879	
4641.695940	-0.065492	
4641.697661	-0.065250	
4641.699132	-0.066346	
4641.700844	-0.066535	
4641.702327	-0.066737	
4641.704017	-0.067293	
4641.705495	-0.069754	
4641.707192	-0.069117	
4641.708685	-0.070109	
4641.710344	-0.071591	
4641.711877	-0.072231	
4641.713504	-0.071599	
4641.715053	-0.071853	
4641.716655	-0.073174	
4641.718244	-0.073392	
4641.719834	-0.074234	
4641.721445	-0.076441	
4641.722991	-0.078016	
4641.724638	-0.078499	
4641.726134	-0.079781	
4641.727854	-0.081396	
4641.729329	-0.081658	
4641.731057	-0.081783	
4641.732531	-0.083676	
4641.734237	-0.084433	
4641.735715	-0.085078	
4641.737420	-0.086693	
4641.738900	-0.089900	
4641.740606	-0.090234	
4641.742085	-0.091789	
4641.743783	-0.093642	
4641.745290	-0.094633	
4641.746952	-0.094987	
4641.748471	-0.096474	
4641.750094	-0.098174	
4641.751661	-0.099052	
4641.753273	-0.100120	
4641.754865	-0.103145	
4641.756440	-0.105107	
4641.758071	-0.105852	
4641.759605	-0.108035	
4641.761283	-0.110078	
4641.762872	-0.110247	
4641.764545	-0.111177	
4641.766020	-0.113510	
4641.767724	-0.114577	
4641.769296	-0.115826	
4641.770992	-0.118485	
4641.772538	-0.120946	
4641.774248	-0.122102	
4641.775781	-0.123895	
4641.777513	-0.126489	
4641.779003	-0.127017	
4641.780779	-0.127472	
4641.782259	-0.129748	
4641.784034	-0.130997	
4641.785527	-0.132753	
4641.787320	-0.134755	
4641.788794	-0.138280	
4641.790569	-0.138691	
4641.792053	-0.140624	
4641.793813	-0.142667	
4641.795314	-0.144141	
4641.797064	-0.144391	
4641.798580	-0.146389	
4641.800330	-0.148020	
4641.801862	-0.150059	
4641.803580	-0.151388	
4641.805108	-0.154155	
4641.806799	-0.155638	
4641.808347	-0.156939	
4641.810019	-0.158949	
4641.811584	-0.161217	
4641.813238	-0.160903	
4641.814829	-0.162623	
4641.816473	-0.164601	
4641.818068	-0.165966	
4641.819703	-0.167256	
4641.821309	-0.170216	
4641.822943	-0.172541	
4641.824622	-0.173810	
4641.826207	-0.175985	
4641.827888	-0.178543	
4641.829470	-0.178970	
4641.831149	-0.180646	
4641.832727	-0.183272	
4641.834382	-0.184819	
4641.835946	-0.186567	
4641.837675	-0.189794	
4641.839224	-0.193109	
4641.840936	-0.195148	
4641.842479	-0.197661	
4641.844189	-0.200880	
4641.845692	-0.202648	
4641.847445	-0.204070	
4641.848930	-0.207212	
4641.850723	-0.210117	
4641.852198	-0.212788	
4641.853977	-0.216413	
4641.855456	-0.220659	
4641.857233	-0.223442	
4641.858714	-0.226452	
4641.860466	-0.230234	
4641.861963	-0.233066	
4641.863719	-0.235197	
4641.865241	-0.238976	
4641.866992	-0.242940	
4641.868505	-0.246287	
4641.870217	-0.250033	
4641.871752	-0.255544	
4641.873447	-0.259206	
4641.874991	-0.262924	
4641.876674	-0.267883	
4641.878250	-0.271118	
4641.879908	-0.274187	
4641.881496	-0.277877	
4641.883148	-0.282522	
4641.884733	-0.286240	
4641.886393	-0.289966	
4641.888000	-0.294998	
4641.889620	-0.299646	
4641.891261	-0.303405	
4641.892868	-0.307929	
4641.894540	-0.312464	
4641.896137	-0.315498	
4641.897803	-0.318680	
4641.899392	-0.322962	
4641.901073	-0.326692	
4641.902646	-0.329967	
4641.904354	-0.334955	
4641.905901	-0.339378	
4641.907592	-0.341650	
4641.909143	-0.345634	
4641.910850	-0.349610	
4641.912347	-0.352188	
4641.914099	-0.354133	
4641.915588	-0.358029	
4641.917369	-0.360732	
4641.918846	-0.362633	
4641.920612	-0.365695	
4641.922086	-0.369711	
4641.923859	-0.371109	
4641.925346	-0.373594	
4641.927107	-0.376398	
4641.928612	-0.378146	
4641.930370	-0.378182	
4641.931885	-0.379890	
4641.933623	-0.381292	
4641.935155	-0.382078	
4641.936866	-0.382883	
4641.938398	-0.385494	
4641.940092	-0.386638	
4641.941639	-0.387383	
4641.943319	-0.388104	
4641.944890	-0.388958	
4641.946553	-0.388382	
4641.948123	-0.388410	
4641.949777	-0.389607	
4641.951380	-0.389357	
4641.953023	-0.389715	
4641.954637	-0.390988	
4641.956253	-0.391846	
4641.957924	-0.391170	
4641.959498	-0.391790	
4641.961175	-0.392745	
4641.962768	-0.391750	
4641.964433	-0.391141	
4641.966024	-0.392245	
4641.967732	-0.392435	
4641.969293	-0.392129	
4641.970992	-0.393462	
4641.972533	-0.394811	
4641.974235	-0.394058	
4641.975778	-0.394602	
4641.977496	-0.395484	
4641.979021	-0.395081	
4641.980769	-0.393877	
4641.982248	-0.394900	
4641.984027	-0.394594	
4641.985509	-0.393538	
4641.987293	-0.393812	
4641.988771	-0.395250	
4641.990553	-0.394235	
4641.992031	-0.393937	
4641.993781	-0.393337	
4641.995285	-0.392854	
4641.997043	-0.390376	
4641.998549	-0.389699	
4642.000274	-0.388390	
4642.001795	-0.387250	
4642.003483	-0.385385	
4642.005039	-0.385320	
4642.006730	-0.383435	
4642.008295	-0.381631	
4642.009996	-0.379798	
4642.011562	-0.378146	
4642.013236	-0.374251	
4642.014810	-0.371491	
4642.016474	-0.369642	
4642.018080	-0.366943	
4642.019712	-0.364095	
4642.021333	-0.363020	
4642.022940	-0.360832	
4642.024593	-0.356671	
4642.026196	-0.354089	
4642.027824	-0.350701	
4642.029430	-0.346318	
4642.031110	-0.341307	
4642.032693	-0.338072	
4642.034401	-0.334467	
4642.035958	-0.329339	
4642.037671	-0.325895	
4642.039233	-0.322797	
4642.040922	-0.317472	
4642.042488	-0.313463	
4642.044224	-0.308936	
4642.045768	-0.303381	
4642.047506	-0.296121	
4642.049010	-0.291662	
4642.050770	-0.286417	
4642.052246	-0.280504	
4642.054021	-0.275065	
4642.055504	-0.271553	
4642.057261	-0.264423	
4642.058754	-0.258964	
4642.060538	-0.253075	
4642.062015	-0.246569	
4642.063783	-0.238464	
4642.065279	-0.233074	
4642.067021	-0.226081	
4642.068539	-0.220164	
4642.070253	-0.213883	
4642.071794	-0.209698	
4642.073528	-0.203108	
4642.075074	-0.197287	
4642.076793	-0.191510	
4642.078345	-0.186402	
4642.080037	-0.178772	
4642.081595	-0.173097	
4642.083277	-0.168496	
4642.084856	-0.162377	
4642.086492	-0.157044	
4642.088101	-0.153958	
4642.089766	-0.149434	
4642.091353	-0.144153	
4642.092986	-0.139750	
4642.094603	-0.136080	
4642.096213	-0.131081	
4642.097877	-0.125389	
4642.099465	-0.122682	
4642.101138	-0.117973	
4642.102740	-0.114142	
4642.104395	-0.111081	
4642.105976	-0.108333	
4642.107674	-0.103592	
4642.109237	-0.100567	
4642.110930	-0.096772	
4642.112486	-0.092313	
4642.114193	-0.086617	
4642.115714	-0.083636	
4642.117441	-0.079337	
4642.118921	-0.074592	
4642.120707	-0.070959	
4642.122197	-0.068582	
4642.123966	-0.063667	
4642.125445	-0.059361	
4642.127240	-0.055188	
4642.128717	-0.051167	
4642.130486	-0.042934	
4642.131974	-0.038087	
4642.133703	-0.032895	
4642.135219	-0.027565	
4642.136962	-0.021595	
4642.138478	-0.018014	
4642.140197	-0.010634	
4642.141735	-0.003210	
4642.143420	0.001817	
4642.144961	0.007703	
4642.146639	0.015034	
4642.148213	0.021528	
4642.149865	0.026958	
4642.151463	0.034080	
4642.153108	0.039772	
4642.154694	0.045142	
4642.156325	0.049617	
4642.157931	0.057597	
4642.159567	0.063213	
4642.161229	0.069670	
4642.162816	0.077179	
4642.164486	0.085127	
4642.166069	0.091093	
4642.167760	0.098541	
4642.169350	0.104709	
4642.171030	0.111617	
4642.172603	0.116467	
4642.174304	0.123923	
4642.175838	0.129841	
4642.177549	0.136029	
4642.179079	0.142788	
4642.180796	0.151082	
4642.182286	0.157459	
4642.184065	0.164726	
4642.185550	0.171579	
4642.187338	0.178370	
4642.188816	0.183438	
4642.190613	0.190552	
4642.192088	0.196470	
4642.193879	0.201509	
4642.195356	0.206923	
4642.197121	0.214863	
4642.198619	0.219830	
4642.200383	0.225804	
4642.201899	0.231210	
4642.203643	0.236652	
4642.205165	0.240072	
4642.206911	0.245591	
4642.208431	0.250115	
4642.210145	0.254977	
4642.211683	0.258977	
4642.213387	0.265519	
4642.214945	0.269805	
4642.216635	0.273249	
4642.218194	0.277564	
4642.219870	0.281330	
4642.221448	0.283232	
4642.223092	0.284504	
4642.224683	0.288223	
4642.226286	0.289745	
4642.227911	0.291514	
4642.229500	0.294636	
4642.231178	0.297580	
4642.232777	0.298217	
4642.234431	0.300529	
4642.236027	0.302112	
4642.237709	0.303131	
4642.239267	0.303458	
4642.240962	0.305883	
4642.242515	0.306555	
4642.244224	0.307752	
4642.245778	0.309339	
4642.247473	0.311990	
4642.248983	0.312372	
4642.250734	0.313396	
4642.252215	0.315108	
4642.254000	0.315700	
4642.255482	0.315370	
4642.257264	0.317827	
4642.258741	0.319233	
4642.260493	0.320570	
4642.261979	0.322161	
4642.263740	0.325625	
4642.265248	0.326544	
4642.266997	0.329388	
4642.268511	0.331926	
4642.270214	0.334154	
4642.271740	0.334637	
4642.273433	0.336643	
4642.274979	0.339181	
4642.276655	0.340675	
4642.278216	0.342327	
4642.279876	0.345558	
4642.281460	0.348398	
4642.283115	0.349473	
4642.284718	0.351407	
4642.286358	0.353908	
4642.287953	0.354577	
4642.289592	0.355097	
4642.291248	0.356914	
4642.292825	0.357260	
4642.294494	0.358037	
4642.296078	0.359899	
4642.297746	0.360833	
4642.299344	0.360938	
4642.301019	0.361437	
4642.302587	0.361051	
4642.304293	0.360773	
4642.305835	0.359000	
4642.307553	0.359157	
4642.309097	0.357913	
4642.310807	0.356019	
4642.312303	0.355697	
4642.314063	0.355048	
4642.315559	0.352345	
4642.317337	0.350525	
4642.318817	0.348430	
4642.320604	0.344990	
4642.322084	0.341304	
4642.323860	0.338552	
4642.325337	0.335660	
4642.327078	0.331273	
4642.328581	0.327732	
4642.330314	0.324848	
4642.331843	0.320417	
4642.333574	0.315756	
4642.335095	0.311978	
4642.336809	0.307188	
4642.338347	0.301218	
4642.340071	0.296118	
4642.341621	0.290503	
4642.343308	0.285113	
4642.344870	0.279320	
4642.346560	0.275163	
4642.348136	0.269745	
4642.349801	0.263932	
4642.351392	0.258324	
4642.353043	0.252842	
4642.354644	0.246018	
4642.356265	0.239875	
4642.357911	0.234851	
4642.359507	0.229059	
4642.361189	0.223250	
4642.362796	0.217518	
4642.364439	0.213501	
4642.366042	0.208075	
4642.367730	0.203153	
4642.369295	0.197726	
4642.370993	0.192014	
4642.372549	0.186383	
4642.374274	0.181456	
4642.375820	0.176759	
4642.377514	0.171272	
4642.379073	0.166898	
4642.380813	0.163977	
4642.382324	0.158180	
4642.384103	0.154889	
4642.385583	0.151328	
4642.387372	0.147046	
4642.388854	0.142220	
4642.390629	0.139296	
4642.392113	0.135553	
4642.393899	0.132000	
4642.395371	0.129322	
4642.397145	0.127388	
4642.398634	0.124479	
4642.400378	0.121430	
4642.401885	0.119509	
4642.403630	0.116761	
4642.405143	0.113776	
4642.406881	0.111065	
4642.408414	0.109466	
4642.410137	0.107049	
4642.411686	0.104604	
4642.413385	0.103826	
4642.414970	0.102864	
4642.416474	0.100060	
4642.418040	0.098416	
4642.419571	0.097804	
4642.421230	0.095278	
4642.422720	0.092591	
4642.424315	0.092068	
4642.425786	0.090303	
4642.427348	0.087918	
4642.428832	0.086597	
4642.430360	0.086980	
4642.431925	0.085248	
4642.433421	0.083709	
4642.434992	0.082436	
4642.436516	0.080756	
4642.438112	0.078315	
4642.439607	0.076144	
4642.441244	0.075084	
4642.442761	0.073175	
4642.444403	0.071080	
4642.445873	0.069787	
4642.447508	0.069473	
4642.448993	0.067414	
4642.450549	0.065855	
4642.452044	0.063769	
4642.453654	0.062141	
4642.455186	0.059261	
4642.456742	0.056651	
4642.458330	0.055507	
4642.459818	0.052590	
4642.461478	0.050983	
4642.462964	0.049428	
4642.464593	0.048969	
4642.466104	0.045690	
4642.467737	0.044078	
4642.469213	0.042008	
4642.470841	0.040114	
4642.472316	0.036686	
4642.473956	0.035067	
4642.475429	0.032920	
4642.477032	0.030599	
4642.478553	0.028839	
4642.480110	0.027167	
4642.481675	0.025931	
4642.483166	0.023651	
4642.484810	0.022672	
4642.486298	0.020863	
4642.487929	0.017362	
4642.489452	0.014458	
4642.491078	0.013322	
4642.492556	0.011658	
4642.494193	0.009584	
4642.495676	0.008198	
4642.497298	0.007654	
4642.498779	0.005829	
4642.500378	0.004299	
4642.501898	0.003070	
4642.503440	0.001990	
4642.504991	-0.000725	
4642.506483	-0.002465	
4642.508125	-0.002799	
4642.509612	-0.004572	
4642.511242	-0.006530	
4642.512767	-0.006775	
4642.514397	-0.006711	
4642.515875	-0.008350	
4642.517494	-0.009269	
4642.518970	-0.010332	
4642.520605	-0.011029	
4642.522104	-0.013281	
4642.523704	-0.013881	
4642.525232	-0.014151	
4642.526786	-0.014957	
4642.528331	-0.016484	
4642.529829	-0.015388	
4642.531478	-0.015593	
4642.532973	-0.016363	
4642.534597	-0.016045	
4642.536116	-0.016169	
4642.537742	-0.017885	
4642.539234	-0.019714	
4642.540865	-0.018631	
4642.542355	-0.019698	
4642.543975	-0.019751	
4642.545479	-0.019718	
4642.547085	-0.018566	
4642.548582	-0.019388	
4642.550160	-0.019497	
4642.551701	-0.019372	
4642.553213	-0.018888	
4642.554850	-0.020294	
4642.556342	-0.021761	
4642.557952	-0.020306	
4642.559473	-0.021084	
4642.561096	-0.021011	
4642.562586	-0.019726	
4642.564230	-0.018735	
4642.565704	-0.020322	
4642.567407	-0.019891	
4642.568889	-0.019372	
4642.570585	-0.019605	
4642.572064	-0.021007	
4642.573764	-0.020641	
4642.575257	-0.020967	
4642.576912	-0.020907	
4642.578442	-0.021922	
4642.580066	-0.020391	
4642.581631	-0.020504	
4642.583216	-0.021136	
4642.584803	-0.021052	
4642.586379	-0.020991	
4642.587975	-0.021426	
4642.589503	-0.023287	
4642.591157	-0.023759	
4642.592637	-0.023694	
4642.594329	-0.024766	
4642.595815	-0.023876	
4642.597519	-0.022933	
4642.599006	-0.024113	
4642.600713	-0.024774	
4642.602200	-0.025277	
4642.603902	-0.025354	
4642.605383	-0.026961	
4642.607059	-0.027577	
4642.608560	-0.028202	
4642.610211	-0.028871	
4642.611748	-0.030007	
4642.613346	-0.029032	
4642.614911	-0.029056	
4642.616489	-0.030176	
4642.618087	-0.031404	
4642.619661	-0.031582	
4642.621272	-0.033346	
4642.622795	-0.034434	
4642.624459	-0.034317	
4642.625936	-0.035956	
4642.627650	-0.036625	
4642.629121	-0.036814	
4642.630834	-0.036049	
4642.632315	-0.038180	
4642.634021	-0.038325	
4642.635506	-0.038309	
4642.637193	-0.039526	
4642.638669	-0.040811	
4642.640337	-0.044662	
4642.641844	-0.045342	
4642.643501	-0.046833	
4642.645035	-0.047800	
4642.646634	-0.046817	
4642.648200	-0.046515	
4642.649803	-0.048271	
4642.651391	-0.048593	
4642.652944	-0.048158	
4642.654577	-0.049632	
4642.656073	-0.050809	
4642.657757	-0.051059	
4642.659237	-0.051542	
4642.660978	-0.052602	
4642.662446	-0.052311	
4642.664165	-0.051196	
4642.665649	-0.052179	
4642.667347	-0.051864	
4642.668822	-0.051949	
4642.670517	-0.052009	
4642.671998	-0.053222	
4642.673667	-0.053737	
4642.675177	-0.053512	
4642.676816	-0.053649	
4642.678352	-0.054136	
4642.679969	-0.052694	
4642.681549	-0.051816	
4642.683233	-0.052609	
4642.684802	-0.052287	
4642.686476	-0.051776	
4642.688050	-0.052666	
4642.689710	-0.053258	
4642.691299	-0.052755	
4642.692909	-0.053000	
4642.694534	-0.053476	
4642.696144	-0.052287	
4642.697785	-0.050946	
4642.699378	-0.051711	
4642.701027	-0.051546	
4642.702615	-0.051216	
4642.704317	-0.051300	
4642.705870	-0.052315	
4642.707573	-0.051486	
4642.709112	-0.051570	
4642.710821	-0.052392	
4642.712350	-0.051763	
4642.714077	-0.050696	
4642.715615	-0.050740	
4642.717375	-0.050970	
4642.718851	-0.050773	
4642.720631	-0.050893	
4642.722111	-0.052577	
4642.723884	-0.052537	
4642.725374	-0.053141	
4642.727147	-0.053947	
4642.728632	-0.053891	
4642.730410	-0.052456	
4642.731896	-0.053443	
4642.733649	-0.054120	
4642.735157	-0.053653	
4642.736882	-0.053786	
4642.738409	-0.055679	
4642.740106	-0.056666	
4642.741638	-0.056811	
4642.743327	-0.058233	
4642.744886	-0.059156	
4642.746572	-0.058624	
4642.748133	-0.058648	
4642.749808	-0.060239	
4642.751386	-0.060960	
4642.753037	-0.061190	
4642.754642	-0.063466	
4642.756266	-0.064465	
4642.757878	-0.065609	
4642.759498	-0.066684	
4642.761153	-0.068328	
4642.762751	-0.068743	
4642.764414	-0.068795	
4642.766023	-0.070648	
4642.767719	-0.071772	
4642.769282	-0.071647	
4642.770967	-0.073678	
4642.772512	-0.076336	
4642.774229	-0.076864	
4642.775786	-0.078552	
4642.777476	-0.079946	
4642.779021	-0.080965	
4642.780760	-0.080804	
4642.782267	-0.082347	
4642.784026	-0.083680	
4642.785510	-0.083873	
4642.787275	-0.085009	
4642.788754	-0.087640	
4642.790533	-0.088615	
4642.792011	-0.089485	
4642.793782	-0.090818	
4642.795273	-0.092172	
4642.797055	-0.091866	
4642.798551	-0.092659	
4642.800286	-0.094125	
4642.801794	-0.095080	
4642.803502	-0.095612	
4642.805028	-0.097545	
4642.806742	-0.099008	
4642.808282	-0.099237	
