time (s)	magX	magY	magZ
7558.945892	409.406189	-165.715363	327.371735
7558.949228	410.282867	-165.540039	330.177094
7558.952560	412.503784	-165.364685	332.924011
7558.955887	412.796021	-165.014038	336.489197
7558.959229	414.432495	-165.306244	338.651672
7558.962557	415.659821	-165.598480	341.164825
7558.965889	417.705414	-165.481598	343.151947
7558.969226	418.698975	-165.890717	344.963776
7558.972606	419.751007	-165.481598	349.288727
7558.975895	421.621246	-165.481598	351.801880
7558.979234	422.614838	-164.488007	353.905914
7558.982562	424.192871	-164.721802	356.711273
7558.985892	425.537079	-164.371124	359.692017
7558.989227	427.407349	-164.020447	362.438934
7558.992562	428.459351	-164.137360	365.653412
7558.995889	430.738708	-163.786682	369.043243
7558.999219	432.725891	-163.026886	373.192871
7559.002558	434.946808	-163.669800	378.043823
7559.005893	436.524841	-162.793091	381.316803
7559.009221	437.459961	-162.383972	385.933960
7559.012559	439.388641	-161.682648	390.375793
7559.015912	441.200470	-162.091766	394.934540
7559.019217	442.486267	-160.981293	399.843964
7559.022554	444.824066	-160.864410	405.805389
7559.025891	447.395630	-160.747528	411.416138
7559.029215	449.265930	-160.396851	416.734680
7559.032555	452.246643	-159.286377	421.760986
7559.035936	453.649323	-159.578613	427.254852
7559.039224	456.513153	-159.403290	434.268280
7559.042548	458.500275	-158.585022	442.392181
7559.045888	460.370514	-158.526611	448.353607
7559.049220	462.065430	-158.526611	454.548828
7559.052549	464.344818	-157.825256	461.503815
7559.055884	466.682648	-158.000580	470.329041
7559.059212	467.851532	-158.000580	476.056732
7559.062546	469.838684	-157.533020	484.063690
7559.065886	472.176483	-157.240784	491.836945
7559.069217	474.280518	-156.890106	498.616608
7559.072547	475.215668	-156.364105	506.506683
7559.075884	478.430145	-156.130341	513.929260
7559.079219	478.839294	-155.195221	521.994751
7559.082548	481.878387	-154.435425	530.703064
7559.085884	483.923981	-154.493866	539.820557
7559.089218	484.625366	-153.909393	546.717102
7559.092546	487.372284	-152.682068	555.425476
7559.095879	488.658081	-152.565155	563.666260
7559.099212	489.125671	-151.571594	571.381042
7559.102569	490.937439	-151.162476	580.556946
7559.105894	492.749237	-149.818237	588.330200
7559.109224	495.203949	-148.707764	596.278748
7559.112542	494.677948	-147.889526	604.227295
7559.115878	497.717133	-145.785522	613.227905
7559.119211	498.827576	-144.967255	621.527161
7559.122543	500.288696	-143.038574	633.099304
7559.125875	500.873169	-142.278778	639.060730
7559.129213	502.042084	-140.408539	649.756226
7559.132547	503.210968	-138.479828	657.587952
7559.135878	503.795410	-136.317352	668.692566
7559.139206	504.964325	-135.148437	677.050232
7559.142544	506.542389	-132.343079	689.440613
7559.145869	508.120361	-130.005249	699.084167
7559.149209	507.711243	-127.725883	709.428955
7559.152550	508.763306	-126.206306	720.708923
7559.155874	508.880157	-123.284035	730.060181
7559.159206	509.055511	-120.595558	741.749268
7559.162535	509.230835	-117.439507	754.548767
7559.165872	508.704834	-115.277031	764.893555
7559.169209	507.828156	-112.004089	776.290466
7559.172553	505.782593	-109.432495	790.317322
7559.175867	504.789001	-106.101105	802.766174
7559.179203	503.853882	-102.477501	815.624207
7559.182539	502.568085	-98.737000	827.079468
7559.185868	500.405579	-95.697845	838.534790
7559.189247	498.184662	-92.892456	854.841003
7559.192540	496.431335	-89.151955	867.465149
7559.195886	493.450623	-85.119232	878.686646
7559.199200	491.288116	-81.261833	890.551147
7559.202540	488.716522	-77.579781	904.811829
7559.205864	485.443573	-73.079483	918.137329
7559.209200	480.767944	-69.455872	931.755127
7559.212538	478.547028	-65.130920	944.028625
7559.215871	473.462280	-60.572182	955.191650
7559.219200	469.955566	-55.896553	967.582092
7559.222532	463.994141	-52.272942	977.693115
7559.225869	460.779633	-47.480423	990.317322
7559.229199	456.337799	-41.928112	1002.766174
7559.232533	450.727051	-37.369377	1011.533020
7559.235867	445.700775	-32.226185	1023.280457
7559.239221	439.505554	-27.316776	1034.326782
7559.242529	434.070129	-21.647575	1045.898926
7559.245864	428.167145	-15.686148	1057.588013
7559.249195	422.088806	-9.841612	1067.640625
7559.252538	416.068970	-3.763296	1074.770996
7559.255865	408.938629	2.490356	1085.817017
7559.259191	402.451172	8.627119	1094.174805
7559.262530	394.385712	14.822327	1103.526001
7559.265862	386.787811	22.478668	1112.760376
7559.269195	379.248383	29.375217	1121.819458
7559.272529	372.234955	36.154881	1130.586304
7559.275857	363.351257	43.811218	1138.476440
7559.279196	354.292206	50.473991	1143.444214
7559.282538	346.051422	58.305672	1152.327881
7559.285857	337.401520	65.903564	1158.932251
7559.289190	327.290466	73.267685	1166.588623
7559.292520	317.413177	81.508476	1170.796753
7559.295863	306.717682	89.983055	1176.290527
7559.299189	296.139069	98.282288	1185.057251
7559.302578	285.911163	105.646408	1190.784912
7559.305866	274.046753	114.062538	1192.304565
7559.309195	262.883698	122.361778	1196.571045
7559.312525	251.194611	130.368805	1203.175415
7559.315858	238.161316	140.012268	1206.156128
7559.319193	226.530685	147.843933	1209.487427
7559.322523	213.205139	156.201630	1210.890137
7559.325883	199.879608	164.091766	1212.585083
7559.329187	187.196960	171.864990	1213.929321
7559.332522	173.637634	180.105774	1215.799561
7559.335849	160.019867	188.814148	1215.858032
7559.339186	145.992981	196.704285	1216.910034
7559.342518	132.141434	204.068390	1216.267090
7559.345856	119.049683	212.367615	1212.526611
7559.349191	105.315025	219.848633	1212.234375
7559.352520	92.398598	227.504974	1210.481079
7559.357216	65.279953	242.116302	1206.448242
7559.360576	52.714203	250.649323	1200.545288
7559.363931	39.622444	256.786072	1196.220459
7559.367205	26.472239	263.741089	1192.713623
7559.370581	14.257159	270.520752	1188.330322
7559.373930	1.632963	277.008179	1182.076538
7559.376790	-10.406778	283.612518	1176.816528
7559.380110	-21.978960	290.567505	1170.738281
7559.383809	-34.369377	297.522491	1163.023437
7559.387164	-46.292229	303.308594	1156.711304
7559.390585	-57.689072	309.503815	1148.996582
7559.393406	-68.735245	316.341919	1139.995972
7559.396843	-79.722969	322.361786	1132.456543
7559.400107	-90.652245	327.914093	1122.929932
7559.403418	-102.224426	333.758636	1114.279907
7559.406705	-112.160141	339.427826	1106.097656
7559.410028	-123.147858	344.980133	1096.220459
7559.413421	-133.668030	349.714203	1085.174194
7559.416731	-142.434830	355.324982	1076.115112
7559.420051	-152.370544	360.175934	1065.361206
7559.423451	-162.306259	363.624207	1054.724121
7559.426792	-172.767975	368.650482	1043.327393
7559.430023	-181.943893	374.202820	1033.450073
7559.433360	-191.996490	377.592651	1021.644104
7559.436712	-200.529510	381.333130	1010.013489
7559.440045	-209.354767	385.015198	996.512512
7559.443385	-218.706024	387.645264	985.349487
7559.446800	-226.537674	391.210419	974.478699
7559.450152	-235.246048	392.905304	961.328430
7559.453427	-243.369980	395.476929	947.301514
7559.456723	-251.902969	397.580963	934.560425
7559.460022	-260.085327	399.568085	921.877808
7559.463354	-266.923462	401.087677	907.851013
7559.466708	-275.105804	402.548798	896.629456
7559.470050	-281.827026	403.191711	882.193420
7559.473455	-288.431335	405.178833	869.218567
7559.476760	-294.568115	405.003510	856.945007
7559.480032	-300.412628	405.178833	843.911682
7559.483355	-307.192291	405.704865	832.281067
7559.486686	-311.926361	405.938629	817.962036
7559.490048	-317.186462	405.178833	806.682068
7559.492982	-321.745209	405.763306	793.765564
7559.496712	-326.128601	405.237305	782.076477
7559.499643	-330.570435	404.711273	769.569275
7559.502955	-333.901825	404.009949	757.295715
7559.506321	-339.278778	403.367065	746.541809
7559.509595	-341.908844	402.957916	733.450012
7559.512937	-343.895966	402.431915	722.053162
7559.516261	-346.526031	402.198120	712.000549
7559.519594	-349.740540	400.561676	701.012878
7559.522933	-352.604340	399.743408	688.797791
7559.526258	-353.948578	398.223877	678.803589
7559.529605	-356.812408	397.347168	669.101685
7559.532950	-357.221527	395.944489	656.419067
7559.536308	-359.968445	394.308014	648.178223
7559.539612	-360.786713	393.606659	638.125610
7559.542941	-362.306244	391.677979	625.968994
7559.546258	-363.533600	391.444183	616.500854
7559.549590	-364.644073	388.814148	607.091125
7559.552927	-364.468750	387.879028	596.044983
7559.556257	-364.760956	384.839874	586.635254
7559.559588	-367.098785	382.911163	577.576233
7559.562918	-367.566345	380.456451	566.471619
7559.566259	-367.274109	380.047363	556.419067
7559.569606	-367.566345	377.241974	546.191101
7559.572944	-368.033905	374.202820	537.599609
7559.576287	-368.793701	371.981903	527.547058
7559.579625	-368.267700	368.942719	518.371094
7559.582918	-366.923462	367.364716	510.071869
7559.586262	-367.332581	365.085358	498.908844
7559.589588	-367.274109	362.572174	490.200470
7559.592915	-368.267700	359.240814	480.790802
7559.596259	-366.748108	355.617187	473.835785
7559.599591	-367.098785	353.805389	463.724731
7559.602939	-367.507904	350.240204	456.068390
7559.606275	-366.455872	347.493286	446.775574
7559.609609	-364.936310	345.213928	437.891907
7559.612958	-365.170105	342.233215	430.352448
7559.616261	-365.170105	339.135620	422.579193
7559.619593	-364.059631	336.563995	415.916412
7559.622515	-364.001190	333.232635	408.143219
7559.625827	-360.611328	331.654602	401.947998
7559.629163	-361.312683	329.083008	395.109863
7559.632495	-358.974884	325.926941	388.447113
7559.635825	-359.968445	323.764465	382.485718
7559.639155	-358.682648	320.491547	375.939819
7559.642489	-356.227936	318.036835	371.322601
7559.645826	-356.344849	316.049683	363.666290
7559.649160	-355.000580	314.237885	358.406189
7559.652490	-352.662781	312.016937	353.730560
7559.655817	-352.545898	309.971375	347.476929
7559.659158	-351.084747	307.808899	342.918182
7559.662494	-349.857391	305.646393	338.008759
7559.665828	-348.279388	304.535950	332.748688
7559.669199	-348.279388	302.022797	329.592651
7559.672487	-346.000031	299.509644	325.033905
7559.675823	-345.824677	297.697845	320.007599
7559.679153	-343.779083	295.243134	316.793121
7559.682484	-342.551727	293.314453	311.883698
7559.685822	-341.499725	291.794861	306.974304
7559.689149	-340.739929	289.457031	303.584473
7559.692484	-339.454132	288.814148	300.019287
7559.695856	-337.934570	286.768555	295.928131
7559.699152	-336.765656	283.904755	291.427826
7559.702485	-335.888977	282.911163	287.921112
7559.705816	-333.551147	280.631805	284.180603
7559.709173	-333.317383	278.586212	279.271179
7559.712484	-331.622467	277.125092	275.121582
7559.715823	-329.518433	275.605499	271.322601
7559.719150	-328.349518	272.683228	268.926361
7559.722482	-327.122162	269.994751	264.309174
7559.725812	-326.537689	268.533600	262.088257
7559.729164	-324.842773	266.371124	257.763306
7559.732487	-324.024567	265.377533	254.315033
7559.735814	-323.089417	263.974854	251.334320
7559.739180	-322.037415	261.520172	248.002930
7559.742478	-320.926941	259.182373	246.015808
7559.745817	-320.050293	257.779663	241.223267
7559.749149	-319.173584	255.850952	238.826996
7559.752510	-318.296906	254.331390	236.021637
7559.755817	-316.602020	252.987152	233.391571
7559.759148	-316.426666	251.759796	230.586212
7559.762480	-316.075989	249.947968	229.358887
7559.765814	-316.192902	248.603760	226.611938
7559.769142	-314.965546	247.610168	224.332550
7559.772480	-313.504395	246.441284	222.637634
7559.775807	-312.803040	244.629456	220.767395
7559.779138	-311.692596	243.928131	218.254242
7559.782479	-311.517273	242.116302	217.436005
7559.785813	-310.874359	241.824066	216.150208
7559.789148	-309.997681	240.362946	215.331970
7559.792481	-309.705444	239.310944	214.163055
7559.795825	-309.880768	238.726471	212.409698
7559.799146	-309.296356	237.966675	211.474579
7559.802478	-307.601410	237.557587	211.007019
7559.805811	-307.309204	236.797791	210.013428
7559.809144	-308.010529	236.154877	208.610748
7559.812476	-307.075409	235.570435	208.143188
7559.815813	-307.426086	234.693756	206.214508
7559.819139	-306.666290	234.985962	207.324951
7559.822475	-306.257172	233.583282	205.162476
7559.825803	-305.672699	234.284637	205.337799
7559.829137	-305.964935	232.823486	204.344238
7559.832469	-305.322052	232.180603	203.818237
7559.835802	-304.153137	231.596130	202.824677
7559.839153	-304.796051	230.894806	202.532440
7559.842471	-304.153137	229.608978	202.707764
7559.845808	-304.854492	229.784332	201.772644
7559.849169	-304.854492	228.089417	201.889526
7559.852466	-303.919373	227.914093	201.012848
7559.855802	-304.153137	227.855621	200.428406
7559.859141	-304.971375	226.920502	199.551727
7559.862470	-304.679138	226.219177	199.201050
7559.865801	-305.029816	226.043854	199.317932
7559.869135	-304.737579	225.284058	198.382812
7559.872471	-304.270020	225.225586	198.558167
7559.875800	-305.088257	224.115143	198.149048
7559.879131	-306.023376	223.530670	197.564575
7559.882505	-305.322052	223.530670	197.856812
7559.885800	-306.374084	222.478668	197.506134
7559.889138	-306.140289	222.011108	198.032135
7559.892467	-306.315613	222.361786	197.856812
7559.895795	-306.432495	222.361786	198.207489
7559.899134	-307.601410	221.601990	198.791931
7559.902466	-306.958527	221.426666	199.551727
7559.905798	-308.361206	221.660431	199.434845
7559.909129	-308.945648	221.368195	200.369965
7559.912515	-309.880768	221.309753	201.188171
7559.915798	-310.173004	221.835754	201.655762
7559.919131	-310.757477	221.543549	202.707764
7559.922461	-311.341919	222.011108	203.116882
7559.925823	-312.686157	221.426666	204.694916
7559.929132	-312.919952	222.712433	206.156036
7559.932467	-314.264191	222.303314	206.506744
7559.935795	-314.965546	222.069550	208.961426
7559.939127	-315.666870	223.063110	210.188782
7559.942463	-317.011108	223.530670	212.000580
7559.945795	-317.595581	224.524261	213.578613
7559.949128	-317.946228	224.465790	216.091766
7559.952466	-319.173584	225.810059	217.786682
7559.955786	-320.576294	225.985382	219.540039
7559.959123	-321.862061	227.095856	220.767395
7559.962463	-322.504974	227.680298	223.514313
7559.965788	-324.550568	228.498535	225.267670
7559.969141	-324.959686	228.557007	226.962585
7559.972457	-327.180634	229.082977	230.469330
7559.975792	-328.524841	229.842773	231.346008
7559.979120	-330.044434	230.368774	234.735840
7559.982462	-331.622467	230.777924	236.430756
7559.985791	-332.206909	231.070129	238.534790
7559.989118	-333.083588	231.596130	240.463470
7559.992455	-335.362946	231.654602	242.859741
7559.995787	-336.940979	232.706604	245.665100
7559.999126	-337.583862	232.472839	247.243164
7560.002459	-339.395691	233.174164	249.464081
7560.005791	-341.324371	234.050842	252.327881
7560.009122	-343.253082	234.109283	254.724152
7560.012489	-345.006439	233.933960	258.406189
7560.015785	-346.116913	235.336639	260.744019
7560.019125	-347.578033	235.278198	263.900085
7560.022449	-349.623627	236.154877	266.121002
7560.025786	-351.493866	235.219757	268.341919
7560.029117	-353.305695	236.622467	272.374634
7560.032449	-354.942139	238.025146	274.946259
7560.035789	-356.578644	238.317352	278.686737
7560.039117	-358.448883	238.960266	283.303925
7560.042457	-361.546478	240.304504	286.635315
7560.045783	-362.832275	241.064301	291.252502
7560.049120	-364.410309	241.882507	295.343658
7560.052452	-366.748108	241.707184	298.558167
7560.055816	-369.553497	243.402100	303.876709
7560.059116	-371.774414	244.454132	308.201660
7560.062449	-373.294006	244.921692	313.753937
7560.065779	-374.988922	246.499695	318.721802
7560.069115	-377.560486	247.902405	324.215668
7560.072443	-379.781403	248.954407	330.644653
7560.075783	-382.294586	249.597321	335.028046
7560.079118	-384.690826	251.175323	340.346588
7560.082446	-385.859741	251.935120	346.308014
7560.085782	-388.139130	253.454712	352.912354
7560.089113	-390.360046	254.623596	359.399780
7560.092444	-392.522491	255.792511	364.542938
7560.095785	-394.918793	256.844543	371.673279
7560.099129	-397.899506	257.662781	378.511414
7560.102447	-399.652832	259.299225	384.648163
7560.105775	-402.166016	259.299225	393.005829
7560.109108	-404.094727	260.409729	399.317963
7560.112438	-405.848053	261.169495	405.863831
7560.115852	-409.530121	262.163055	412.818848
7560.119108	-410.640594	263.507294	419.949188
7560.122446	-412.569244	263.215088	428.657501
7560.125780	-414.030396	264.267090	435.261841
7560.129112	-417.770935	265.436005	442.099945
7560.132446	-418.647583	266.020477	449.990082
7560.135772	-420.868500	265.436005	458.172394
7560.139113	-423.732361	266.371124	465.069000
7560.142478	-426.070129	266.780243	473.075989
7560.145772	-427.998840	267.364685	480.264740
7560.149111	-429.635315	268.358276	489.148468
7560.152440	-431.271759	268.124481	498.149017
7560.155774	-434.135590	268.358276	506.389862
7560.159098	-434.310944	268.416718	514.163025
7560.162437	-436.999451	268.475159	523.046753
7560.165773	-439.512573	268.884277	531.170654
7560.169108	-440.973724	268.650482	540.872559
7560.172444	-442.025726	268.708954	550.632935
7560.175769	-444.188202	268.533600	560.217957
7560.179106	-445.766235	269.118073	570.679687
7560.182442	-446.350677	268.767395	581.258301
7560.185810	-448.396271	268.241394	591.544678
7560.189107	-449.448273	268.124481	602.883118
7560.192452	-450.324982	267.130920	614.221497
7560.195774	-452.078308	268.241394	626.495056
7560.199105	-453.422577	267.598480	636.196960
7560.202441	-452.721222	266.955597	649.580933
7560.205768	-453.188782	267.014038	661.445312
7560.209105	-454.065491	265.845123	673.543518
7560.212437	-453.773224	265.377533	685.466370
7560.215770	-453.831696	264.325562	698.382812
7560.219102	-453.071899	263.039734	711.240784
7560.222430	-452.955017	262.046173	725.442993
7560.225764	-451.902985	261.227936	736.722961
7560.229125	-451.201660	259.474579	751.392761
7560.232427	-449.097595	258.188782	763.432434
7560.235768	-447.344269	256.493866	777.576233
7560.239098	-445.064911	254.389832	792.246033
7560.242427	-444.947968	252.753357	804.928650
7560.245766	-442.142609	250.473999	818.955566
7560.249116	-440.564606	248.253052	833.508423
7560.252434	-438.109894	245.097015	845.665100
7560.255765	-435.655182	242.934540	860.802429
7560.259100	-432.090027	240.012268	875.355286
7560.262425	-429.401520	236.388672	887.804199
7560.265759	-427.589722	233.291046	902.649231
7560.269100	-424.083008	229.959686	916.033325
7560.272468	-420.108734	225.634705	930.761475
7560.275757	-416.309753	222.654022	945.197510
7560.279096	-412.919922	217.627686	957.763245
7560.282424	-408.536560	213.887207	970.387512
7560.285757	-403.510254	209.503784	984.998840
7560.289091	-399.711304	204.477509	998.090637
7560.292426	-395.035675	199.860321	1011.240784
7560.295760	-390.126251	195.067810	1023.514343
7560.299096	-384.047943	189.457062	1036.898315
7560.302425	-379.313873	184.080078	1051.568115
7560.305762	-371.949738	179.170654	1063.900146
7560.309095	-365.696106	173.267670	1076.524292
7560.312442	-359.384003	167.481598	1088.213379
7560.315803	-351.786102	161.578613	1103.233887
7560.319089	-344.714203	155.558746	1115.273560
7560.322438	-335.596741	149.305084	1127.371704
7560.325754	-325.544128	143.109894	1140.580444
7560.329087	-317.303345	136.680893	1152.386353
7560.332423	-308.069000	130.135010	1163.724731
7560.335751	-297.841034	123.530685	1176.699707
7560.339086	-288.080658	116.926361	1186.401611
7560.343713	-267.098785	103.308586	1209.721313
7560.347106	-255.643478	96.119820	1221.059570
7560.350079	-244.363541	88.580368	1230.118652
7560.353801	-232.382217	81.274696	1242.509155
7560.357137	-219.874939	73.852135	1251.743408
7560.360462	-207.309174	66.195793	1259.925903
7560.363759	-195.210983	58.831676	1269.803101
7560.366675	-182.177673	50.883110	1277.225586
7560.370025	-169.144363	42.992989	1285.875488
7560.373348	-156.286377	34.752193	1288.505615
7560.376681	-142.727066	27.797195	1296.980225
7560.379957	-129.459961	19.673290	1301.363525
7560.383705	-116.543533	10.964933	1308.844604
7560.386628	-102.808884	2.548802	1313.286377
7560.389961	-89.366455	-5.691992	1314.747559
